T (K)	P (kPa)	uP (kPa)
60	0.725807	
60.003	0.72927	0.008
61	1.07858	0.432
61.003	0.93592	0.0107
61.042	0.933	
61.431	1.03585	
62	1.18729	
62.004	1.1919	0.0131
62.119	1.2132	
63.004	1.50388	0.016
63.069	1.5465	
63.14	1.548	
64	1.8781	
64.005	1.88385	0.0267
64.048	1.8532	
64.407	2.0265	
64.5	2.3798	0.952
64.991	2.3198	
65.002	2.3465	
65.005	2.34114	0.0253
66	2.88192	
66.006	2.8891	0.0307
66.025	2.9064	
66.69	3.35572	0.048
66.7	3.36506	0.048
66.978	3.466	
66.999	3.53193	
67.006	3.53971	0.0387
67.163	3.64953	
67.956	4.253	
68	4.30191	
68.007	4.31031	0.0467
68.357	4.6083	
68.989	5.1862	
69.007	5.21557	0.056
69.31	5.51629	
69.511	5.72559	
69.988	6.2528	
70.007	6.27282	0.0667
70.141	6.3861	
70.9	7.42206	0.0496
70.91	7.43939	0.0496
70.974	7.4261	
70.995	7.466	
71.007	7.50205	0.08
71.8	8.6926	
72.007	8.92327	0.0947
72.47	9.6125	
72.622	9.89954	
73.007	10.5578	0.111
73.082	10.6391	
73.491	11.3857	
73.929	12.2257	
74.007	12.431	0.131
74.133	12.6827	
74.219	12.8585	
74.487	13.3589	
74.999	14.5457	
75.008	14.5655	0.152
75.03	14.5588	
75.15	14.799	
75.989	16.8653	
76.008	16.9893	0.177
76.233	17.5786	
76.534	18.3852	
76.944	19.5462	
76.996	19.6117	
77.008	19.7304	0.205
77.204	20.3086	
77.224	20.3682	
77.44	21.0351	0.709
77.7	21.33	
77.73	22.0062	0.0555
77.73	22.0275	0.0555
78.008	22.8181	0.237
78.026	22.7581	
78.36	23.9154	0.0563
78.38	24.0247	0.0563
78.524	24.5047	
78.735	25.2983	
78.8	25.8581	0.78
79.008	26.2818	0.273
79.042	26.3445	
79.918	29.7042	
80.008	30.1549	0.312
80.009	30.0775	
80.171	30.7041	
80.391	31.7557	
80.64	32.8893	0.0599
80.65	32.932	0.0599
80.96	34.7139	0.902
80.966	34.2823	
81.008	34.4705	0.356
81.045	34.53	
81.557	37.0435	
82.008	39.2634	0.405
82.106	39.6634	
82.522	41.8099	
82.581	42.1432	
82.692	42.7298	
82.748	43.0365	
83.008	44.571	0.467
83.01	44.8667	1.06
83.019	44.503	
83.215	45.596	
83.359	46.4228	
83.641	48.076	
83.828	49.3375	
83.887	49.6951	
83.96	50.1905	0.0668
83.97	50.1852	0.0668
84.008	50.4292	0.519
84.113	50.9158	
84.148	51.1691	
84.31	52.5877	1.3
84.417	52.8757	
84.76	55.0755	
84.95	56.4087	
85.0081	56.878	0.585
85.047	57.1489	
85.21	58.1152	
85.217	58.3112	
85.277	58.6352	
85.448	59.9202	
85.638	61.2695	
85.639	61.1683	
85.913	63.1015	
85.914	63.1415	
86.0081	63.9561	0.656
86.098	64.6349	
86.19	65.2938	1.49
86.3	66.0906	0.0731
86.31	66.1452	0.0731
86.384	66.7012	
86.419	66.9545	
86.448	67.2911	
86.548	68.0654	
87.0081	71.7048	0.735
87.134	72.6207	
87.198	73.2699	
87.327	74.3387	
87.447	75.2338	
87.468	75.5207	
87.747	77.86	
87.75	78.0912	1.71
87.761	78.0238	
87.887	79.0735	
88.0081	80.1667	0.821
88.03	80.3001	
88.045	80.4201	
88.39	83.5011	0.0801
88.41	83.7291	0.0801
88.42	83.8771	0.0803
88.489	84.5229	
88.7	86.4329	
88.7	86.4462	
88.77	87.3016	1.83
88.84	87.7272	1.83
88.951	88.8327	
88.959	88.9369	
88.979	89.1286	
89.0081	89.3846	0.915
89.386	93.059	
89.558	94.7789	
89.56	94.597	2.07
89.677	95.992	
89.74	96.7958	2.07
89.867	97.9386	
89.914	98.4452	
89.94	98.6319	0.0861
89.94	98.6452	0.0861
89.95	98.8052	
90.0081	99.4025	1.02
90.05	100.2	2.03
90.068	100.005	
90.13	100.626	2.03
90.14	101.315	2.05
90.182	101.218	
90.1881	101.294	1.03
90.19	101.33	1.07
90.193	101.28	0.85
90.196	101.32	0.85
90.196	101.33	0.85
90.2	101.32	
90.231	101.752	
90.387	103.392	
90.41	103.544	2.18
90.44	103.737	2.17
90.49	104.395	2.14
90.5	104.343	0.785
90.506	104.698	
90.597	105.725	
90.6	106.067	2.08
90.604	105.725	
90.637	106.165	
90.75	107.871	2.32
90.788	107.805	
90.827	108.231	
90.96	109.776	2.36
91.0081	110.266	1.13
91.07	110.363	2.34
91.16	111.407	2.27
91.386	114.644	
91.41	115.511	2.52
91.49	115.871	
91.526	116.297	
91.728	118.67	
91.9	120.871	2.24
92.0081	122.019	1.24
92.079	122.977	
92.28	125.456	
92.289	125.563	
92.29	125.563	
92.321	125.963	
92.362	126.47	
92.368	126.563	
92.451	127.51	
92.46	127.696	
92.477	127.883	
92.511	128.25	0.86
92.512	128.25	0.86
92.513	128.26	0.86
92.514	128.28	0.86
92.547	128.789	
92.59	128.581	2.53
92.599	129.469	
92.606	129.576	
92.615	129.696	
92.62	129.737	2.54
92.647	130.029	
92.72	130.811	2.54
92.727	131.096	
92.861	132.776	
92.862	132.749	
93.0081	134.709	1.37
93.145	136.589	
93.146	136.629	
93.17	139.254	0.981
93.173	136.709	
93.5499	141.47	2.73
93.5499	141.762	
93.7758	144.948	
93.7888	145.121	
93.7898	145.188	
93.846	146.07	
94.0082	148.388	1.51
94.1697	150.4	
94.2857	152.134	
94.3177	152.574	
94.4196	153.518	2.8
94.4916	155.201	
94.4926	155.214	
94.538	156.027	
94.6516	157.574	
94.8225	160.094	
94.8235	160.174	
95.007	163.07	0.89
95.007	163.07	0.89
95.008	163.08	0.89
95.0082	163.107	1.66
95.013	163.14	0.89
95.013	163.16	0.89
95.015	163.19	0.89
95.015	163.21	0.89
95.018	163.23	0.89
95.019	163.26	0.89
95.02	163.25	0.89
95.7762	174.919	
96.0082	178.905	1.82
96.2121	182.145	
96.3161	183.838	
96.667	189.798	
96.9919	195.437	
97.0092	195.824	1.99
97.182	198.88	0.92
97.186	198.98	0.92
97.189	199.02	0.92
97.2	199.21	0.92
97.204	199.29	0.92
97.501	204.59	0.93
97.504	204.64	0.93
97.505	204.66	0.93
97.512	204.79	0.93
97.5367	205.103	
97.6147	206.53	
98.0093	213.942	2.17
98.4284	221.192	4.76
98.7583	228.994	3.75
99.0093	233.289	2.37
99.0622	234.181	
99.4981	241.63	4.24
99.915	251.726	
100	253.81	0.97
100.003	253.89	0.97
100.005	253.91	0.97
100.007	253.97	0.97
100.009	253.927	2.57
100.009	254.01	0.97
100.009	254.02	0.97
100.01	254	0.97
100.015	254.14	0.97
100.015	254.15	0.97
100.016	253.846	
100.016	253.913	
100.016	254.18	0.97
100.018	253.502	1.27
100.024	254.32	0.97
100.047	254.659	
100.134	256.566	
100.181	257.499	
100.182	257.526	
100.43	263.101	
100.819	271.722	
101.01	275.912	2.8
101.073	277.151	
101.128	278.137	4.66
101.917	297.3	
101.986	298.522	
102.01	299.283	3.03
102.071	300.97	1.02
102.089	301.38	1.02
102.09	301.37	1.02
102.093	301.48	1.02
102.098	301.62	1.02
102.517	311.98	5.17
102.598	313.628	
103.01	324.095	3.28
103.978	349.385	
104.01	350.413	3.55
104.186	356.259	5.47
104.37	360.277	
104.433	361.97	
104.699	369.41	
104.709	369.716	
105.006	378.39	1.11
105.007	378.43	1.11
105.008	378.53	1.11
105.01	378.54	1.11
105.011	378.277	3.83
105.505	392.736	5.88
105.91	405.038	
105.977	407.064	
106.011	407.701	4.12
106.097	410.446	
106.305	416.539	
106.444	421.512	6.49
107.011	438.899	4.44
107.185	444.363	
107.303	448.403	
107.405	451.79	
107.862	468.223	6.99
108.012	471.776	4.77
108.162	481.507	1.96
108.676	494.719	
108.711	493.3	
109.012	506.413	5.11
109.322	517.704	
109.85	538.745	7.9
109.94	540.369	
109.999	542.93	1.21
110.001	543.03	1.21
110.007	543.34	1.21
110.01	541.621	2.26
110.01	543.38	1.21
110.012	542.89	5.48
110.012	543.56	1.21
110.013	543.49	1.21
110.013	543.54	1.21
110.014	543.53	1.21
110.014	543.64	1.21
110.015	543.58	1.21
110.045	544.75	1.21
110.152	548.422	
110.578	564.18	
111.013	581.26	5.87
111.091	584.659	
111.277	591.791	
111.686	608.885	
111.747	611.372	
112.013	621.59	6.27
112.036	622.935	
112.504	642.87	1.33
112.512	643.15	1.33
112.513	643.15	1.33
112.902	659.372	
112.981	662.959	
113.013	663.92	6.7
113.157	674.698	1.96
113.327	680.853	8.74
113.607	689.3	
113.635	691.53	
113.715	695.263	
114.012	708.8	
114.014	708.318	7.14
114.499	731.06	
115.01	755.44	1.43
115.012	755.61	1.43
115.012	755.63	1.43
115.012	755.64	1.43
115.014	754.834	7.61
115.015	755.73	1.43
115.015	755.78	1.43
115.016	755.76	1.43
115.018	755.93	1.43
115.019	755.93	1.43
115.021	756.13	1.43
115.256	773.211	10
115.659	786.415	
116.012	803.9	
116.015	803.55	8.1
116.115	809.107	
116.624	835.302	
117.015	854.506	8.61
117.178	863.302	
117.221	866.297	
117.254	874.536	10.9
117.512	881.51	1.54
117.512	881.74	1.54
117.513	881.74	1.54
117.521	882.1	1.54
118.013	908.2	
118.016	907.768	9.14
118.099	912.832	
118.154	921.83	9.81
118.316	924.764	
119.016	963.39	9.7
119.401	985.879	
120.002	1020.28	3.24
120.002	1021.56	1.67
120.004	1021.66	1.67
120.004	1021.72	1.67
120.005	1021.65	1.67
120.01	1021.89	1.67
120.014	1022.14	1.67
120.014	1022.19	1.67
120.016	1022.41	1.67
120.017	1021.45	10.3
120.017	1022.36	1.67
120.017	1022.41	1.67
120.073	1025.88	
120.242	1040.91	11.9
120.998	1095.96	
121.018	1082.01	10.9
121.636	1121.83	
121.701	1135.75	13.4
121.763	1129.03	
121.801	1132.32	
122.013	1145.1	
122.018	1145.12	11.5
122.411	1183.78	13.8
122.48	1175.45	
122.503	1177.1	
122.504	1177.58	1.8
122.507	1177.91	1.8
122.514	1178.36	1.8
122.52	1178.76	1.8
122.724	1192.31	
123.019	1210.85	12.2
123.117	1218.53	
123.15	1227.79	2.94
124.02	1279.26	12.9
124.417	1308.23	
124.687	1326.73	
124.725	1329.4	
125	1349.79	1.95
125	1349.89	1.95
125.009	1350.57	1.95
125.012	1350.65	1.95
125.015	1351	1.95
125.016	1350.99	1.95
125.018	1351.05	1.95
125.018	1351.13	1.95
125.019	1351.28	1.95
125.021	1350.43	13.6
125.022	1351.5	1.95
125.57	1412.57	14.2
125.957	1419.35	
126.014	1423.4	
126.022	1424.42	14.3
126.29	1462.42	14.6
126.58	1484.51	15.6
127.024	1501.21	15.1
127.078	1506.36	
127.261	1519.88	
127.357	1527.74	
127.508	1540.19	2.1
127.517	1540.94	2.1
127.519	1541.21	2.1
128.025	1581.08	15.9
128.066	1584.27	
128.15	1600.45	2.94
128.486	1619.5	
129.027	1663.87	16.7
129.636	1715.33	
129.73	1724.42	
129.901	1764.88	16.5
129.971	1760.42	21.1
130.011	1748.79	2.27
130.011	1748.79	2.27
130.012	1748.87	2.27
130.013	1748.8	2.27
130.016	1749.21	2.27
130.017	1749.22	2.27
130.018	1749.24	2.27
130.019	1749.33	2.27
130.022	1749.58	2.27
130.022	1749.59	2.27
130.025	1749.99	2.27
130.028	1749.86	17.6
130.291	1772.39	
130.401	1805	19.7
130.704	1808.65	
130.976	1834.3	
131.03	1838.92	18.5
131.541	1885.18	
131.795	1908.11	
131.961	1926.51	
131.971	1954.05	19.9
132.032	1931.31	19.4
132.52	1976.88	2.45
132.523	1977.26	2.45
132.525	1977.6	2.45
133.035	2026.91	20.4
133.151	2047.63	3.92
133.318	2053.03	
133.558	2077.83	
134.038	2125.97	21.4
134.222	2175.45	20.3
134.717	2194.35	
135.013	2224.52	2.64
135.013	2224.64	2.64
135.015	2224.44	2.64
135.015	2224.52	2.64
135.015	2224.57	2.64
135.016	2224.89	2.64
135.019	2225.37	2.64
135.021	2225.24	2.64
135.025	2225.65	2.64
135.026	2225.84	2.64
135.041	2228.49	22.4
135.05	2227.68	
135.076	2231.38	
135.595	2284.21	
136.044	2334.48	23.4
136.895	2425.94	
137.048	2444.21	24.5
137.517	2494.69	2.85
137.524	2495.56	2.85
137.525	2495.51	2.85
137.615	2504.99	
137.793	2526.37	
138.014	2550	
138.053	2557.53	25.7
138.155	2581.11	3.92
138.708	2631.76	
139.014	2666.9	
139.058	2674.72	26.9
139.114	2678.7	
139.214	2690.6	
139.314	2702.6	
139.408	2713.24	
139.414	2714.6	
139.647	2743.2	
140.013	2786.93	3.06
140.014	2786.3	
140.018	2787.48	3.06
140.02	2787.64	3.06
140.02	2787.74	3.06
140.021	2787.44	3.06
140.021	2787.76	3.06
140.024	2787.89	3.06
140.024	2788.24	3.06
140.026	2788.07	3.06
140.026	2788.22	3.06
140.064	2795.78	28.1
140.335	2825.9	
140.621	2860.83	
140.774	2881.45	
140.916	2899.22	
141.071	2920.97	29.3
141.166	2929.49	
141.221	2937.66	
141.436	2963.36	
142.014	3038	
142.014	3038.6	
142.078	3050.03	30.6
142.449	3096.24	
142.522	3104.29	3.3
142.522	3104.72	3.3
142.528	3105.45	3.3
143.087	3183.35	31.9
143.103	3177.47	
143.158	3208.74	4.9
143.7	3264.19	
143.763	3272.82	
144.097	3320.94	33.3
144.25	3338.26	
144.405	3360.12	
145.011	3445.63	3.55
145.026	3447.54	3.55
145.028	3447.65	3.55
145.03	3447.74	3.55
145.031	3448.45	3.55
145.032	3448.5	3.55
145.033	3448.42	3.55
145.033	3448.5	3.55
145.033	3448.73	3.55
145.035	3448.48	3.55
145.037	3449.08	3.55
145.108	3462.93	34.7
145.13	3462.78	
145.875	3572.2	
145.926	3579.67	
146.011	3590.24	
146.014	3591	
146.12	3609.45	36.2
146.541	3669.17	
146.985	3735.96	
147.134	3760.5	37.7
147.459	3809.93	
147.53	3817.38	3.82
147.533	3817.64	3.82
147.535	3818.58	3.82
147.578	3826.35	
148.041	3898.21	
148.15	3916.36	39.3
148.162	3937.37	5.88
148.31	3942.55	
148.694	4001.67	
149.025	4056.71	
149.169	4077.01	40.9
149.589	4146.73	
149.967	4211.07	
150.011	4213.71	4.09
150.014	4218.9	
150.036	4217.61	4.09
150.04	4218.6	4.09
150.041	4218.4	4.09
150.042	4219.07	4.09
150.043	4218.96	4.09
150.044	4219.37	4.09
150.047	4219.16	4.09
150.047	4219.9	4.09
150.048	4219.94	4.09
150.05	4220.27	4.09
150.053	4220.65	4.09
150.177	4244.18	
150.189	4242.73	42.6
150.308	4266.18	
150.755	4341.91	
151.16	4411.1	
151.212	4413.65	44.3
151.314	4437.9	
151.316	4438.44	
151.882	4537.76	
152.047	4561.8	4.41
152.047	4561.81	4.41
152.048	4562.48	4.41
152.05	4562.73	4.41
152.05	4562.83	4.41
152.056	4563.36	4.41
152.059	4564.07	4.41
152.06	4563.81	4.41
152.064	4564.66	4.41
152.079	4567.93	4.41
152.239	4589.77	46
152.41	4631.89	
152.59	4664.42	
152.965	4732.81	
153.017	4744.05	
153.167	4767.99	6.86
153.269	4771.49	47.9
153.475	4808.42	48.2
153.484	4829.07	
153.518	4836.95	
153.57	4844.8	
153.618	4855.7	
153.682	4845.62	48.6
153.889	4883.08	49
154.002	4926.53	
154.014	4932	
154.014	4932.1	
154.018	4931.41	
154.096	4920.81	49.4
154.114	4950.4	
154.118	4950.53	
154.119	4950.73	
154.206	4964.93	
154.214	4969.7	
154.218	4969.74	
154.303	4958.67	49.7
154.314	4988.5	
154.318	4989.03	
154.415	5007.83	
154.5	5022.79	
154.509	5026.14	
154.51	4996.8	50.1
154.519	5028.09	
154.529	5030.05	
154.542	5032.59	
154.559	5035.93	
154.563	5027.13	4.83
154.563	5036.71	
154.565	5037.1	
154.579	5039.85	
154.585	5041.03	
154.585	5041.03	
154.586	5031.64	4.61
154.598	5041.72	
154.64	5042.15	4.8
154.645	4985.19	30.4
154.645	4992.28	30.4
154.645	5003.43	30.4
154.645	5021.73	50.4
154.645	5037.17	53.7
154.645	5043.27	4.83
154.645	5043.32	4.84
154.645	5043.37	4.85
154.645	5043	3
